FrameNum, Time [ms], Vection Response (0:no, 1: yes )
1, 0.0000, 0
2, 20.0000, 0
3, 50.3858, 0
4, 76.9043, 0
5, 87.6793, 0
6, 102.6382, 0
7, 120.6878, 0
8, 135.7157, 0
9, 152.3943, 0
10, 169.6521, 0
11, 183.7622, 0
12, 201.9914, 0
13, 217.4468, 0
14, 233.0399, 0
15, 251.0220, 0
16, 270.7367, 0
17, 286.6922, 0
18, 306.5005, 0
19, 316.4555, 0
20, 335.8931, 0
21, 352.1683, 0
22, 369.3617, 0
23, 382.8104, 0
24, 402.1369, 0
25, 418.9587, 0
26, 441.2359, 0
27, 450.2119, 0
28, 469.1368, 0
29, 491.2244, 0
30, 500.9023, 0
31, 519.5491, 0
32, 536.4185, 0
33, 557.0904, 0
34, 571.1968, 0
35, 584.1141, 0
36, 602.8344, 0
37, 619.7217, 0
38, 635.2170, 0
39, 657.1991, 0
40, 667.5734, 0
41, 684.5953, 0
42, 703.5242, 0
43, 725.6940, 0
44, 733.7678, 0
45, 754.0521, 0
46, 771.1820, 0
47, 785.9194, 0
48, 802.3694, 0
49, 819.3155, 0
50, 836.5704, 0
51, 853.8928, 0
52, 875.1680, 0
53, 889.5793, 0
54, 902.3067, 0
55, 917.7482, 0
56, 935.2986, 0
57, 951.1069, 0
58, 967.2969, 0
59, 984.5316, 0
60, 998.6742, 0
61, 1020.3780, 0
62, 1034.9320, 0
63, 1054.7070, 0
64, 1079.0390, 0
65, 1087.3070, 0
66, 1102.7780, 0
67, 1119.0930, 0
68, 1139.4070, 0
69, 1156.4870, 0
70, 1172.3130, 0
71, 1190.9770, 0
72, 1206.9190, 0
73, 1222.9900, 0
74, 1246.2480, 0
75, 1255.7420, 0
76, 1275.6950, 0
77, 1289.5280, 0
78, 1306.1980, 0
79, 1326.1190, 0
80, 1338.5830, 0
81, 1355.9880, 0
82, 1371.6060, 0
83, 1390.7140, 0
84, 1407.4870, 0
85, 1423.2710, 0
86, 1439.0490, 0
87, 1455.9480, 0
88, 1472.6650, 0
89, 1490.7530, 0
90, 1503.6560, 0
91, 1524.8480, 0
92, 1535.8180, 0
93, 1551.0970, 0
94, 1572.6520, 0
95, 1590.9910, 0
96, 1605.6930, 0
97, 1621.7580, 0
98, 1640.4020, 0
99, 1655.3160, 0
100, 1671.9850, 0
101, 1689.4340, 0
102, 1706.5290, 0
103, 1724.8880, 0
104, 1741.8580, 0
105, 1756.8740, 0
106, 1771.7720, 0
107, 1788.5750, 0
108, 1806.5000, 0
109, 1822.9460, 0
110, 1839.7740, 0
111, 1856.8940, 0
112, 1871.6540, 0
113, 1889.4950, 0
114, 1904.8220, 0
115, 1922.0270, 0
116, 1941.5380, 0
117, 1955.1510, 0
118, 1973.1720, 0
119, 1988.3740, 0
120, 2005.7080, 0
121, 2022.2880, 0
122, 2039.7800, 0
123, 2057.3980, 0
124, 2074.6610, 0
125, 2090.3380, 0
126, 2109.1350, 0
127, 2123.8740, 0
128, 2144.5790, 0
129, 2158.5570, 0
130, 2174.5830, 0
131, 2188.6760, 0
132, 2206.9600, 0
133, 2226.1020, 0
134, 2241.1750, 0
135, 2259.4570, 0
136, 2274.1560, 0
137, 2292.0520, 0
138, 2305.8460, 0
139, 2323.0200, 0
140, 2342.9400, 0
141, 2363.8900, 0
142, 2372.3880, 0
143, 2391.1470, 0
144, 2405.8250, 0
145, 2423.1090, 0
146, 2440.6930, 0
147, 2455.7350, 0
148, 2472.7410, 0
149, 2489.2630, 0
150, 2506.4660, 0
151, 2524.2300, 0
152, 2541.5150, 0
153, 2556.4920, 0
154, 2574.2800, 0
155, 2594.2440, 0
156, 2605.8670, 0
157, 2632.8420, 0
158, 2639.2800, 0
159, 2657.2840, 0
160, 2674.3210, 0
161, 2691.8900, 0
162, 2706.2810, 0
163, 2723.9770, 0
164, 2739.3270, 0
165, 2757.8710, 0
166, 2774.4780, 0
167, 2791.0510, 0
168, 2808.6600, 0
169, 2818.9310, 0
170, 2835.9370, 0
171, 2857.9530, 0
172, 2874.2620, 0
173, 2891.3530, 0
174, 2908.0950, 0
175, 2923.5450, 0
176, 2943.1580, 0
177, 2965.0850, 0
178, 2979.7000, 0
179, 2997.2090, 0
180, 3013.7470, 0
181, 3029.1920, 0
182, 3045.0410, 0
183, 3064.6520, 0
184, 3077.1720, 0
185, 3108.4990, 0
186, 3114.1910, 0
187, 3128.8120, 0
188, 3149.3510, 0
189, 3164.7990, 0
190, 3178.1490, 0
191, 3196.3540, 0
192, 3212.2280, 0
193, 3230.3570, 0
194, 3245.7320, 0
195, 3262.7010, 0
196, 3283.3600, 0
197, 3298.6960, 0
198, 3330.1480, 0
199, 3336.6240, 0
200, 3352.8630, 0
201, 3367.2500, 0
202, 3384.5190, 0
203, 3399.7410, 0
204, 3417.7420, 0
205, 3435.8990, 0
206, 3448.0950, 0
207, 3473.4900, 0
208, 3483.2430, 0
209, 3499.3060, 0
210, 3516.1370, 0
211, 3532.6070, 0
212, 3551.8150, 0
213, 3566.5320, 0
214, 3583.3810, 0
215, 3599.4330, 0
216, 3615.8100, 0
217, 3632.6760, 0
218, 3649.2110, 0
219, 3665.7770, 0
220, 3682.6720, 0
221, 3699.9460, 0
222, 3716.9790, 0
223, 3732.3090, 0
224, 3751.7870, 0
225, 3765.5600, 0
226, 3783.7660, 0
227, 3799.3100, 0
228, 3816.4030, 0
229, 3832.3370, 0
230, 3850.0420, 0
231, 3866.0240, 0
232, 3883.0630, 0
233, 3900.1720, 0
234, 3916.1450, 0
235, 3931.9340, 0
236, 3952.7900, 0
237, 3966.7670, 0
238, 3982.5020, 0
239, 3999.1850, 0
240, 4016.3510, 0
241, 4033.2000, 0
242, 4050.0100, 0
243, 4066.2140, 0
244, 4083.4510, 0
245, 4100.5130, 0
246, 4115.6410, 0
247, 4132.8030, 0
248, 4150.2250, 0
249, 4166.4980, 0
250, 4182.8310, 0
251, 4200.0370, 0
252, 4216.7500, 0
253, 4233.2820, 0
254, 4249.4930, 0
255, 4266.4070, 0
256, 4283.3530, 0
257, 4299.2790, 0
258, 4316.2520, 0
259, 4332.8750, 0
260, 4350.4270, 0
261, 4365.9620, 0
262, 4383.1100, 0
263, 4399.2260, 0
264, 4415.8980, 0
265, 4432.8950, 0
266, 4449.1400, 0
267, 4466.2780, 0
268, 4483.5000, 0
269, 4499.4900, 0
270, 4516.5630, 0
271, 4532.6120, 0
272, 4549.0010, 0
273, 4565.8310, 0
274, 4583.3010, 0
275, 4599.6630, 0
276, 4615.9940, 0
277, 4631.9790, 0
278, 4650.3600, 0
279, 4666.3740, 0
280, 4682.5120, 0
281, 4699.6530, 0
282, 4716.5660, 0
283, 4732.6070, 0
284, 4749.6740, 0
285, 4766.3500, 0
286, 4783.0030, 0
287, 4799.8910, 0
288, 4816.4690, 0
289, 4833.6370, 0
290, 4849.0590, 0
291, 4866.9730, 0
292, 4882.9820, 0
293, 4899.2610, 0
294, 4916.4420, 0
295, 4932.6730, 0
296, 4950.1210, 0
297, 4969.4990, 0
298, 4982.8840, 0
299, 5000.3400, 0
300, 5015.7400, 0
301, 5032.8480, 0
302, 5048.6350, 0
303, 5068.9360, 0
304, 5082.1310, 0
305, 5099.0840, 0
306, 5115.2630, 0
307, 5132.2020, 0
308, 5148.7190, 0
309, 5165.1180, 0
310, 5181.8770, 0
311, 5206.7520, 0
312, 5216.3450, 0
313, 5232.5490, 0
314, 5248.9400, 0
315, 5266.7310, 0
316, 5282.0660, 0
317, 5299.8950, 0
318, 5315.6070, 0
319, 5332.6070, 0
320, 5351.0660, 0
321, 5367.3400, 0
322, 5383.5070, 0
323, 5399.8380, 0
324, 5415.4460, 0
325, 5432.8070, 0
326, 5449.4510, 0
327, 5466.1810, 0
328, 5481.9640, 0
329, 5499.6790, 0
330, 5515.0980, 0
331, 5533.4420, 0
332, 5549.0350, 0
333, 5564.8590, 0
334, 5583.0090, 0
335, 5599.1630, 0
336, 5615.7140, 0
337, 5634.1540, 0
338, 5649.1100, 0
339, 5667.5320, 0
340, 5682.7770, 0
341, 5699.5350, 0
342, 5715.6990, 0
343, 5733.0080, 0
344, 5748.9030, 0
345, 5764.8260, 0
346, 5783.0980, 0
347, 5799.0220, 0
348, 5815.3400, 0
349, 5833.0530, 0
350, 5851.1040, 0
351, 5866.6360, 0
352, 5882.5200, 0
353, 5898.8390, 0
354, 5916.4190, 0
355, 5932.3490, 0
356, 5948.4180, 0
357, 5965.1000, 0
358, 5983.6060, 0
359, 5999.9570, 0
360, 6015.6560, 0
361, 6032.8870, 0
362, 6048.5130, 0
363, 6066.3110, 0
364, 6082.1320, 0
365, 6099.7960, 0
366, 6115.9620, 0
367, 6133.2950, 0
368, 6148.8730, 0
369, 6165.6400, 0
370, 6183.8980, 0
371, 6199.2270, 0
372, 6215.1750, 0
373, 6232.6790, 0
374, 6248.6480, 0
375, 6266.0510, 0
376, 6284.1620, 0
377, 6299.6810, 0
378, 6315.7080, 0
379, 6334.3710, 0
380, 6349.8410, 0
381, 6368.5560, 0
382, 6383.5710, 0
383, 6399.7230, 0
384, 6415.1630, 0
385, 6432.3350, 0
386, 6448.5520, 0
387, 6465.7250, 0
388, 6483.8280, 0
389, 6498.9190, 0
390, 6517.2310, 0
391, 6532.9700, 0
392, 6549.1280, 0
393, 6567.3330, 0
394, 6582.5610, 0
395, 6600.0460, 0
396, 6615.6240, 0
397, 6633.0520, 0
398, 6649.0900, 0
399, 6667.2280, 0
400, 6682.8020, 0
401, 6699.3670, 0
402, 6715.1470, 0
403, 6732.5100, 0
404, 6749.1250, 0
405, 6768.1190, 0
406, 6783.7880, 0
407, 6799.2850, 0
408, 6816.4840, 0
409, 6833.1320, 0
410, 6849.8640, 0
411, 6865.4420, 0
412, 6884.3110, 0
413, 6900.2480, 0
414, 6915.8580, 0
415, 6931.9560, 0
416, 6949.1720, 0
417, 6970.3440, 0
418, 6983.2740, 0
419, 6998.8370, 0
420, 7016.8850, 0
421, 7032.9670, 0
422, 7050.2840, 0
423, 7065.9820, 0
424, 7083.8260, 0
425, 7099.3350, 0
426, 7115.7730, 0
427, 7133.7300, 0
428, 7150.2580, 0
429, 7166.5410, 0
430, 7182.5930, 0
431, 7200.7240, 0
432, 7215.9640, 0
433, 7234.2360, 0
434, 7249.0180, 0
435, 7265.9790, 0
436, 7283.9170, 0
437, 7299.4170, 0
438, 7317.7660, 0
439, 7333.6260, 0
440, 7348.8110, 0
441, 7365.7950, 0
442, 7384.1020, 0
443, 7399.7130, 0
444, 7415.4980, 0
445, 7432.5080, 0
446, 7450.6050, 0
447, 7465.9820, 0
448, 7482.0880, 0
449, 7499.3750, 0
450, 7515.0500, 0
451, 7532.3860, 0
452, 7548.4890, 0
453, 7566.5360, 0
454, 7581.8490, 0
455, 7599.7490, 0
456, 7617.9510, 0
457, 7633.3420, 0
458, 7648.5450, 0
459, 7666.2450, 0
460, 7681.7650, 0
461, 7699.8630, 0
462, 7716.3560, 0
463, 7733.4370, 0
464, 7748.7680, 0
465, 7766.9160, 0
466, 7783.4170, 0
467, 7799.8660, 0
468, 7815.3830, 0
469, 7834.0690, 0
470, 7849.7700, 0
471, 7867.1970, 0
472, 7884.2430, 0
473, 7901.0250, 0
474, 7916.9120, 0
475, 7932.5180, 0
476, 7948.7000, 0
477, 7966.1010, 0
478, 7981.6330, 0
479, 7999.4500, 0
480, 8015.4540, 0
481, 8033.8180, 0
482, 8049.1000, 0
483, 8066.6990, 0
484, 8083.1850, 0
485, 8099.7160, 0
486, 8114.9330, 0
487, 8133.5250, 0
488, 8149.4580, 0
489, 8166.2500, 0
490, 8181.3630, 0
491, 8200.0220, 0
492, 8216.7010, 0
493, 8233.0840, 0
494, 8249.8070, 0
495, 8265.2820, 0
496, 8282.2780, 0
497, 8300.5410, 0
498, 8315.8820, 0
499, 8334.3550, 0
500, 8350.2580, 0
501, 8367.8850, 0
502, 8383.3790, 0
503, 8399.5120, 0
504, 8415.6790, 0
505, 8431.9880, 0
506, 8449.4480, 0
