FrameNum, Time [ms], Vection Response (0:no, 1: yes )
1, 0.0000, 0
2, 20.0000, 0
3, 71.0853, 0
4, 90.4660, 0
5, 107.9100, 0
6, 123.1371, 0
7, 139.2175, 0
8, 157.8925, 0
9, 174.2387, 0
10, 187.6167, 0
11, 210.2439, 0
12, 220.7528, 0
13, 243.9740, 0
14, 256.7297, 0
15, 271.7410, 0
16, 285.2144, 0
17, 305.7128, 0
18, 323.7134, 0
19, 341.0830, 0
20, 358.8773, 0
21, 373.2402, 0
22, 388.3931, 0
23, 405.7391, 0
24, 424.9195, 0
25, 440.5425, 0
26, 455.4408, 0
27, 477.8142, 0
28, 487.9284, 0
29, 504.8444, 0
30, 523.8817, 0
31, 543.3442, 0
32, 558.2474, 0
33, 571.1167, 0
34, 589.9790, 0
35, 604.0505, 0
36, 622.5327, 0
37, 636.5791, 0
38, 650.5488, 0
39, 673.4964, 0
40, 689.3142, 0
41, 704.9849, 0
42, 721.1169, 0
43, 742.8452, 0
44, 757.6679, 0
45, 768.0347, 0
46, 787.7583, 0
47, 806.4942, 0
48, 823.7073, 0
49, 840.2764, 0
50, 854.3636, 0
51, 871.5723, 0
52, 887.4261, 0
53, 904.5354, 0
54, 921.3347, 0
55, 938.6850, 0
56, 956.6256, 0
57, 976.2436, 0
58, 996.5559, 0
59, 1076.8790, 0
60, 1086.0330, 0
61, 1099.8410, 0
62, 1121.5000, 0
63, 1129.3140, 0
64, 1144.7350, 0
65, 1168.3800, 0
66, 1184.7130, 0
67, 1201.0140, 0
68, 1216.1740, 0
69, 1233.2100, 0
70, 1248.5680, 0
71, 1269.9990, 0
72, 1282.8160, 0
73, 1299.4930, 0
74, 1317.0240, 0
75, 1332.8020, 0
76, 1351.4410, 0
77, 1367.9890, 0
78, 1385.0590, 0
79, 1398.6030, 0
80, 1415.7780, 0
81, 1432.2430, 0
82, 1449.2210, 0
83, 1467.1360, 0
84, 1484.5470, 0
85, 1500.0530, 0
86, 1519.1150, 0
87, 1535.3800, 0
88, 1549.5640, 0
89, 1567.8360, 0
90, 1584.5620, 0
91, 1599.9510, 0
92, 1620.1830, 0
93, 1633.2470, 0
94, 1649.6330, 0
95, 1672.6370, 0
96, 1682.2540, 0
97, 1700.0900, 0
98, 1718.5470, 0
99, 1737.2280, 0
100, 1749.8510, 0
101, 1766.2860, 0
102, 1785.2620, 0
103, 1801.2890, 0
104, 1817.2070, 0
105, 1834.7120, 0
106, 1851.9350, 0
107, 1868.9950, 0
108, 1885.8020, 0
109, 1901.8010, 0
110, 1918.6620, 0
111, 1933.6880, 0
112, 1952.1350, 0
113, 1968.4440, 0
114, 1984.1430, 0
115, 2000.8510, 0
116, 2079.8700, 0
117, 2096.0870, 0
118, 2110.9090, 0
119, 2128.4180, 0
120, 2145.7250, 0
121, 2162.6230, 0
122, 2178.5140, 0
123, 2194.1920, 0
124, 2211.1940, 0
125, 2229.9460, 0
126, 2245.0650, 0
127, 2260.1990, 0
128, 2276.4220, 0
129, 2295.6920, 0
130, 2310.1860, 0
131, 2330.4120, 0
132, 2345.1830, 0
133, 2359.8660, 0
134, 2376.5620, 0
135, 2395.7020, 0
136, 2413.3420, 0
137, 2428.7280, 0
138, 2446.7960, 0
139, 2463.2730, 0
140, 2485.1170, 0
141, 2502.3590, 0
142, 2513.2790, 0
143, 2529.4890, 0
144, 2545.4660, 0
145, 2564.9970, 0
146, 2579.8700, 0
147, 2597.5730, 0
148, 2613.5560, 0
149, 2630.8190, 0
150, 2646.5580, 0
151, 2665.2760, 0
152, 2675.7990, 0
153, 2695.9490, 0
154, 2712.7810, 0
155, 2731.6100, 0
156, 2749.1330, 0
157, 2767.1860, 0
158, 2781.0960, 0
159, 2798.8350, 0
160, 2814.0960, 0
161, 2832.4600, 0
162, 2847.2910, 0
163, 2865.5640, 0
164, 2882.9380, 0
165, 2898.8250, 0
166, 2915.8230, 0
167, 2932.9640, 0
168, 2945.7280, 0
169, 2962.9240, 0
170, 2979.3850, 0
171, 3000.4850, 0
172, 3015.4180, 0
173, 3062.4610, 0
174, 3077.7540, 0
175, 3098.0860, 0
176, 3115.9070, 0
177, 3129.7690, 0
178, 3146.4290, 0
179, 3164.2980, 0
180, 3179.1690, 0
181, 3197.5210, 0
182, 3215.0410, 0
183, 3229.2300, 0
184, 3246.5420, 0
185, 3261.8970, 0
186, 3281.3360, 0
187, 3301.1770, 0
188, 3313.7870, 0
189, 3329.0740, 0
190, 3345.9720, 0
191, 3362.7680, 0
192, 3380.4020, 0
193, 3397.4880, 0
194, 3416.4620, 0
195, 3428.7130, 0
196, 3454.3810, 0
197, 3463.4380, 0
198, 3479.8420, 0
199, 3494.8990, 0
200, 3513.9510, 0
201, 3530.1300, 0
202, 3547.1060, 0
203, 3563.8920, 0
204, 3579.4680, 0
205, 3597.0300, 0
206, 3613.1570, 0
207, 3630.2680, 0
208, 3646.7350, 0
209, 3663.7470, 0
210, 3680.0510, 0
211, 3695.9980, 0
212, 3714.0960, 0
213, 3729.5740, 0
214, 3747.2130, 0
215, 3762.9230, 0
216, 3780.7560, 0
217, 3796.7730, 0
218, 3813.4660, 0
219, 3829.6010, 0
220, 3846.7600, 0
221, 3863.6460, 0
222, 3879.1980, 0
223, 3896.7420, 0
224, 3913.7040, 0
225, 3930.0850, 0
226, 3946.6970, 0
227, 3963.7190, 0
228, 3980.1180, 0
229, 3996.9530, 0
230, 4013.5130, 0
231, 4029.3300, 0
232, 4063.6600, 0
233, 4080.1010, 0
234, 4097.7700, 0
235, 4114.4150, 0
236, 4130.2790, 0
237, 4147.0850, 0
238, 4164.2190, 0
239, 4180.3370, 0
240, 4196.5840, 0
241, 4213.9840, 0
242, 4230.6630, 0
243, 4246.9840, 0
244, 4264.0680, 0
245, 4281.3190, 0
246, 4296.4980, 0
247, 4314.4850, 0
248, 4330.7610, 0
249, 4347.0300, 0
250, 4363.8630, 0
251, 4379.9020, 0
252, 4397.0970, 0
253, 4413.2270, 0
254, 4430.7110, 0
255, 4447.0940, 0
256, 4463.1680, 0
257, 4479.9110, 0
258, 4496.7450, 0
259, 4514.2500, 0
260, 4530.3140, 0
261, 4546.6490, 0
262, 4564.8860, 0
263, 4579.8770, 0
264, 4596.4730, 0
265, 4613.8040, 0
266, 4630.7610, 0
267, 4647.0180, 0
268, 4663.7310, 0
269, 4680.7310, 0
270, 4696.6040, 0
271, 4713.2120, 0
272, 4731.0980, 0
273, 4747.7100, 0
274, 4764.3150, 0
275, 4781.3680, 0
276, 4797.2730, 0
277, 4813.4680, 0
278, 4830.8840, 0
279, 4846.8390, 0
280, 4863.2820, 0
281, 4879.9290, 0
282, 4896.6750, 0
283, 4913.9750, 0
284, 4932.8350, 0
285, 4947.1120, 0
286, 4963.9030, 0
287, 4980.7910, 0
